Frequency,Nominal,Min,Max
1950,-0.006189467247677893,-0.02555005628768125,0.009002821050101181
2000,-0.0065247032373340645,-0.026886601783008675,0.009457226544558654
2050,-0.006869834566472039,-0.02825794943517521,0.009921779807373918
2100,-0.007224966506894295,-0.029664170559533493,0.010396378662967134
2150,-0.007590206884383405,-0.031105338096361915,0.010880918357117287
2200,-0.007965666075170501,-0.03258152660091795,0.011375291553109896
2250,-0.008351457002203739,-0.03409281223324544,0.011879388327819427
2300,-0.008747695131357692,-0.03563927274780071,0.012393096167752485
2350,-0.009154498467508449,-0.037220987482781506,0.012916299964987167
2400,-0.00957198755046476,-0.038838037349258364,0.01344888201310193
2450,-0.010000285450797803,-0.04049050482003693,0.01399072200302745
2500,-0.010439517765525225,-0.04217847391832949,0.014541697018837712
2550,-0.01088981261367367,-0.04390203020614095,0.015101681533509981
2600,-0.011351300631719925,-0.04566126077245801,0.01567054740461408
2700,-0.01230839128219259,-0.049287100658825134,0.016834397543321587
2750,-0.012804267731701874,-0.05115389168202017,0.017429112409757246
2800,-0.013311884975147223,-0.05305672036470082,0.018032169821414968
2850,-0.01383138616280373,-0.05499568124514929,0.01864342849288568
2900,-0.014362916932003906,-0.056970870312754295,0.019262744496704363
2950,-0.01490662540160096,-0.05898238499454329,0.019889971258786467
3000,-0.015462662166221271,-0.061030324141509606,0.020524959553844774
3050,-0.016031180290373825,-0.06311478801466061,0.021167557500775737
3100,-0.016612335302443937,-0.06523587827089111,0.02181761055801951
3150,-0.017206285188449723,-0.06739369794858563,0.02247496151892879
3200,-0.01781319038570363,-0.06958835145301805,0.02313945050708328
3300,-0.019066520680201038,-0.07408858430826357,0.024489189682644998
3400,-0.020373658457379065,-0.07873743884670133,0.025865495500445757
3500,-0.02173597477291181,-0.08353579797500961,0.027266992360506802
3600,-0.023154879232193108,-0.08848456498893155,0.028692261497470957
3700,-0.024631819743938382,-0.09358466305143456,0.03013984083157548
3900,-0.027765790511913656,-0.10424264107957129,0.03309586431471613
4000,-0.029425905710753274,-0.10980246181226908,0.03460116641025417
4100,-0.031150226265062485,-0.11551749398564856,0.036122494310515625
4200,-0.032940387461195236,-0.121388751778082,0.03765816718654521
4320,-0.03517784704732675,-0.1286419311812482,0.039517478095408926
4450,-0.03771490373680742,-0.1367571855780843,0.04154867932293414
4580,-0.04037338989565004,-0.14514267343369686,0.043593587904147815
4750,-0.04403969361974798,-0.15652003156167915,0.04628146748546079
4880,-0.04699367825801172,-0.16553829790586425,0.04834197100421171
5000,-0.04984007250506217,-0.1741097721380719,0.05024363747001764
5150,-0.05356484044624471,-0.18516053104226965,0.05261464921230385
5300,-0.05748119551649635,-0.19658871565892128,0.054972166846007156
5500,-0.0630129489656094,-0.21242020733888853,0.05808162762654612
5650,-0.06740338798585349,-0.22474442164712793,0.0603783005484762
5800,-0.07200897302990024,-0.2374593264006085,0.06263576332652344
6000,-0.07849723064706689,-0.2550272762586302,0.06557049472142992
6150,-0.08363383756204205,-0.2686695779458152,0.06770413857072533
6300,-0.08901079824623967,-0.28271614359144076,0.06977031168878825
6450,-0.09463596936384656,-0.297171071794664,0.0717600417459468
6600,-0.10051733374177156,-0.312038462263192,0.07366412980799406
6750,-0.10666299451246755,-0.32732240943216984,0.07547315154413306
6880,-0.1122093689258693,-0.34090860118857536,0.07695662051853634
7000,-0.11751545541658152,-0.35373241710318926,0.07825062350790554
7150,-0.12440636989726692,-0.370147089722081,0.07975836331283379
7320,-0.132573077024565,-0.3892721386454107,0.08130757852085346
7500,-0.14164698159623934,-0.4101326166309093,0.08274684611945202
7650,-0.14955451864031866,-0.4280007749368417,0.08377515957372435
7800,-0.15778589459149783,-0.44631345731128064,0.0846362869192489
8000,-0.16928006909075133,-0.47142843795608735,0.085505091443282
8200,-0.1813867107903191,-0.4973493309806342,0.08602985510362895
8400,-0.19412702138846546,-0.524084774235082,0.08618298579619185
8600,-0.2075223041646419,-0.5516431480354521,0.08593630008048811
8800,-0.22159392497605765,-0.58003254834647,0.08526104809660094
9000,-0.23636327191702688,-0.6092607604189137,0.0841279411801567
9200,-0.25185171371041104,-0.6393352329714066,0.08250718227521549
9400,-0.26808055691238547,-0.6702630530066195,0.08036849923533024
9600,-0.2850710020235992,-0.7020509213512462,0.0776811810915402
9800,-0.30284409861205397,-0.7347051290081994,0.07441411735300786
10000,-0.32142069956507474,-0.7682315344077563,0.07053584039100433
10200,-0.3408214145996108,-0.8026355416422979,0.06601457094051034
10400,-0.3610665631718608,-0.8379220797664276,0.06081826673487764
10600,-0.38217612693830705,-0.8740955832410758,0.054914674269223696
10800,-0.40416970193100266,-0.9111599735961757,0.04827138366598127
11000,-0.4270664506198969,-0.9491186423822269,0.04085588659264263
11200,-0.45088505404409596,-0.9879744354759632,0.0326356371567002
11500,-0.4883809880292892,-1.0479450773529375,0.01872523900140231
11800,-0.5280505852453741,-1.1099445447014236,0.002821710600793314
12000,-0.5557321340403976,-1.1524059116623062,-0.008941469890231936
12200,-0.5844200752056925,-1.1957699997313924,-0.021670371014529084
12500,-0.6293711651053026,-1.2625070894093229,-0.04264288603109575
12800,-0.6766663811609972,-1.331268768978309,-0.06596244035951572
13000,-0.7095198721676412,-1.378230841634559,-0.08286265068938437
13200,-0.7434454645158873,-1.4260861016523227,-0.10087990095422456
13500,-0.7963666266679109,-1.4995353295109324,-0.13006178406943308
13800,-0.8517543923650797,-1.574970364631854,-0.16191198431641726
14000,-0.8900629354165285,-1.6263546881178745,-0.1846708692816949
14200,-0.9294857649252957,-1.6786073337829153,-0.20867863765132622
14500,-0.990720598028655,-1.7585994625955836,-0.24708227158869356
14800,-1.0544875320000942,-1.8405047522416906,-0.28842055112451326
15000,-1.0984095637530333,-1.8978769216793707,-0.31764265602166936
15500,-1.2131565617009392,-2.054958072555993,-0.396646081440277
16000,-1.334944550914797,-2.2183437242034865,-0.4843279478000789
16500,-1.4637130060820558,-2.3877855340000003,-0.580860053952239
17000,-1.599359022972167,-2.5630085581147286,-0.6863469855446586
17500,-1.7417391969350196,-2.7437153386136433,-0.8008239982310007
18000,-1.8906722000311622,-2.9295901241992164,-0.9242564939863551
18500,-2.0459419592608823,-3.1203031060318915,-1.0362133617965887
19000,-2.207301321169529,-3.315514561726967,-1.153974145660249
19500,-2.3744760775413516,-3.514878815606873,-1.2786872705148065
20000,-2.547169223099682,-3.720973313183007,-1.4102202530744787
20500,-2.7250653187279648,-3.9552095787221466,-1.548402068086775
21000,-2.9078348418982936,-4.193051846532866,-1.6930262475265478
21500,-3.095138418619947,-4.434005992588316,-1.84385447506934
22000,-3.286630847009129,-4.677599081575531,-2.000620554108737
22500,-3.481964840211178,-4.923382005616407,-2.1630346227425896
23000,-3.680794434640786,-5.170931343392635,-2.3307874906699393
23500,-3.8827780272758994,-5.419850527040656,-2.503554980082175
24000,-4.087581022202319,-5.669770409826748,-2.6810021643422903
24500,-4.294878081155956,-5.920349328011959,-2.862787413281798
25000,-4.504354985083759,-6.171272746770319,-3.0479180745552874
25500,-4.715710123590156,-6.422252573721465,-3.2105236190909094
26000,-4.9286556365746605,-6.6730262156075,-3.3760377178689556
27000,-5.358239751327611,-7.173025132513019,-3.7149253289866913
27500,-5.574377400146719,-7.421841898902441,-3.8878707566532498
28000,-5.791103872529413,-7.669632717353138,-4.062871054145637
28500,-6.008207207932915,-7.916243508229821,-4.239722539611765
29000,-6.22549052857996,-8.161537746093316,-4.418227373185467
29500,-6.442771647390836,-8.405395100730733,-4.598194268880132
30000,-6.65988257824054,-8.647710126674482,-4.7794390677165275
30500,-6.876668971882539,-8.8883910117472,-4.9617851814847045
31000,-7.092989497979447,-9.127358391692988,-5.1450639176654125
31500,-7.308715190861868,-9.36454423513753,-5.329114696706855
32000,-7.523728773971936,-9.599890800876075,-5.5137851731328755
33000,-7.951204845385139,-10.064880835919753,-5.884417151228352
34000,-8.374687376209257,-10.522037274994396,-6.25590539584738
35000,-8.793590065059574,-10.971178673703957,-6.627322775710236
36000,-9.207450753139728,-11.412211882923021,-6.997862741771003
37000,-9.615913254684278,-11.84511414613089,-7.366830767315026
39000,-10.415653185444455,-12.686700612064499,-8.097775257596355
40000,-10.806611345325319,-13.095570862014903,-8.458835290623426
41000,-11.191509556632493,-13.496664256567419,-8.816471171873268
42000,-11.570314764322108,-13.89013489986204,-9.17040346427597
43200,-12.016843269165392,-14.352474508951989,-9.58992249292002
44500,-12.490753463802644,-14.841584994721906,-10.037683238758618
45800,-12.954571294525788,-15.318862698217728,-10.47820220367483
47500,-13.546176179628615,-15.92582559395475,-11.043068516123071
48800,-13.98744130027907,-16.37736637212869,-11.46635957423365
50000,-14.386424247301095,-16.784861783217945,-11.850407141897021
51500,-14.874209710106847,-17.2821448427581,-12.321486637603645
53000,-15.350214172363025,-17.76654593508721,-12.782691587838036
55000,-15.967270192359527,-18.393346738294433,-13.382547707462294
56500,-16.417379889213905,-18.849840295786066,-13.821383248483869
58000,-16.85706595004553,-19.29523434619791,-14.250990484281145
60000,-17.427775133507232,-19.872652857703518,-14.809863068023146
61500,-17.84464275508086,-20.293971109094052,-15.2188907112566
63000,-18.252344924613084,-20.70569402343299,-15.619522726619659
64500,-18.651229972742957,-21.108222055220487,-16.012015863793156
66000,-19.041631890944142,-21.501934056053766,-16.39662488615521
67500,-19.423870325320024,-21.887188397589263,-16.773600739063564
68800,-19.748776765534295,-22.214496702370777,-17.09432888210779
70000,-20.043616752173115,-22.51139666034309,-17.38559600799124
71500,-20.40554200378117,-22.875705577522933,-17.743401310433832
73200,-20.807142909484135,-23.279778074731148,-18.14074928501705
75000,-21.22282731307735,-23.69784425678969,-18.552356903695234
76500,-21.562031697605164,-24.038869822030495,-18.888460777161725
78000,-21.89493688503067,-24.373463505136055,-19.218506258749926
80000,-22.32938860958214,-24.80998275809317,-19.64947876908479
82000,-22.753520610393608,-25.235996870380642,-20.07046836442583
84000,-23.16779354583528,-25.651989649742184,-20.48189377052205
86000,-23.572639975755727,-26.058413458943154,-20.884151653452015
88000,-23.968466327652965,-26.455691729296614,-21.277617608286974
90000,-24.355654739514414,-26.84422125165034,-21.662647198272047
92000,-24.734564778538246,-27.224374263613974,-22.039577010365118
94000,-25.105535038304172,-27.596500351015226,-22.408725703144686
96000,-25.468884619092677,-27.9609281804936,-22.770395030584115
98000,-25.824914497328926,-28.317967078916734,-23.12487083068289
100000,-26.17390879081197,-28.66790847403495,-23.472423971961767
102000,-26.516135926669126,-29.011027209534078,-23.813311253747532
104000,-26.851849718981224,-29.347582746442185,-24.147776258277588
106000,-27.181290362850667,-29.677820261713705,-24.4760501541548
108000,-27.50468535139717,-30.001971653765352,-24.798352451735767
110000,-27.822250321811918,-30.320256463775088,-25.114891711756904
112000,-28.134189836211668,-30.632882720678793,-25.4258662089806
115000,-28.59197354163651,-31.09164113730927,-25.88230410864753
118000,-29.038149899349794,-31.538733637604647,-26.32724233532953
120000,-29.329435822313137,-31.830601603142824,-26.61775569824559
122000,-29.61597637931268,-32.117703552288816,-26.903561734712007
125000,-30.037219085311875,-32.53975342815298,-27.32376700920946
128000,-30.448605921503827,-32.95191008829316,-27.734185230163394
130000,-30.717611558298152,-33.22141040621548,-28.00257924685487
132000,-30.982562944796932,-33.4868430001159,-28.2669437776616
135000,-31.372649853423262,-33.877628678241585,-28.656192636075303
138000,-31.75426803604634,-34.25992064731654,-29.037018344063657
140000,-32.00415394407957,-34.5102431615442,-29.286398739526135
142000,-32.25053740695174,-34.75705395285932,-29.532293368885334
145000,-32.613756384535776,-35.120897816202316,-29.89480775980511
148000,-32.969622571161736,-35.47737109352926,-30.250000565546614
150000,-33.202926842599354,-35.71107094061025,-30.48287167208668
155000,-33.772992798848264,-36.282096432304016,-31.05190388945193
160000,-34.32515709539954,-36.83518175368861,-31.603096040101075
165000,-34.860512882852376,-37.3714231907215,-32.137532332956766
170000,-35.38005640806038,-37.891818874984324,-32.656201903558475
175000,-35.88469800152225,-38.397279947741595,-33.16000946290386
180000,-36.375271556569295,-38.88864017245542,-33.64978451540823
185000,-36.85254273940621,-39.366664245230965,-34.12628936612347
190000,-37.317216126508185,-39.83205500737185,-34.590226099827966
195000,-37.76994143163948,-40.28545972802051,-35.042242683954534
200000,-38.211318957083954,-40.727475595764055,-35.48293832224608
205000,-38.64190438120854,-41.15865453457903,-35.91286816545139
210000,-39.06221297615477,-41.57950744040186,-36.33254746844164
215000,-39.47272333444295,-41.99050791903513,-36.74245526914939
220000,-39.87388067092495,-42.392095593330794,-37.143037653156185
225000,-40.26609975632123,-42.784679037075634,-37.53471065813515
230000,-40.64976753011743,-43.168638384306036,-37.917862864336115
235000,-41.02524543355214,-43.54432765555637,-38.29285771059311
240000,-41.39287149754003,-43.91207683652246,-38.66003556970516
245000,-41.75296221543648,-44.272193739581766,-39.01971561230252
250000,-42.10581422639285,-44.62496567437829,-39.37219748430842
255000,-42.45170583154035,-44.970660950112986,-39.717762819716114
260000,-42.790898362265736,-45.309530229163826,-40.056676607519876
270000,-43.45015398328431,-45.967712427995295,-40.7155335809367
275000,-43.77066545128649,-46.28744886603162,-41.035934093372376
280000,-44.08537654085354,-46.60120825491467,-41.35059965931213
285000,-44.394480140959445,-46.909169205116314,-41.659728479526414
290000,-44.698158076728774,-47.21149849990805,-41.96350803478558
295000,-44.996581809457076,-47.508351784084326,-42.26211579170284
300000,-45.289913076670906,-47.79987419442406,-42.55571984897151
305000,-45.57830447819619,-48.086200938185534,-42.84447952984604
310000,-45.861900013541224,-48.36745782527976,-43.128545926061925
315000,-46.140835575322455,-48.64376175920335,-43.40806239781575
320000,-46.41523940295731,-48.91522119131998,-43.68316503392593
330000,-46.95092902135813,-49.44400059696537,-44.22063930888435
340000,-47.46985680454468,-49.9545099482883,-44.7419273489464
350000,-47.972811843776874,-50.44735221922707,-45.24789537946902
360000,-48.46049381858656,-50.923029679644145,-45.73932681693857
370000,-48.93352114496187,-51.38195321683714,-46.216930495403865
390000,-49.83772090921529,-52.250776958231945,-47.13315868962592
400000,-50.269783585297176,-52.66111858283335,-47.57288734554312
410000,-50.68898261938507,-53.05560537074854,-48.00100658839736
420000,-51.09562168694435,-53.434316884673116,-48.41794214921964
432000,-51.56736535546665,-53.86799855308369,-48.9040377278235
445000,-52.05883450699332,-54.31225021887955,-49.41376282283883
458000,-52.53026691901515,-54.72985640741848,-49.906558659057545
475000,-53.11691677196102,-55.235615926982305,-50.52633882989294
488000,-53.5428990862511,-55.59143287685667,-50.98201154884316
500000,-53.918773008108694,-55.896054761263244,-51.38892231242288
515000,-54.36522176501494,-56.24474145236416,-51.87940565259656
530000,-54.78564022128563,-56.55801758715547,-52.35003383556739
550000,-55.30557749055451,-56.92150128341499,-52.94706476103248
565000,-55.664967577798954,-57.15445921997923,-53.37217444092019
580000,-55.99811765294789,-57.35461051677106,-53.777939172124135
600000,-56.40156760077099,-57.77258514335058,-54.28888599110767
615000,-56.673778512080546,-58.06655274457632,-54.64950543320426
630000,-56.92025458192046,-58.33608990817922,-54.99070683285534
645000,-57.14141316453493,-58.58143064035983,-55.312437561751366
660000,-57.3378140002897,-58.80292414827713,-55.60325818295533
675000,-57.51015962993602,-59.00104257963786,-55.74020551882035
688000,-57.64071313793079,-59.15429580133356,-55.840008850167386
700000,-57.74628220022548,-59.2809726320564,-55.91733510079054
715000,-57.85891324506351,-59.42000369134209,-55.995107424584624
732000,-57.961942573933776,-59.55270198534336,-56.05956427995181
750000,-58.04440271173366,-59.66595780460777,-56.10264441200877
765000,-58.09373426964814,-59.740240196135005,-56.120549176493554
780000,-58.12680957898153,-59.7974527937535,-56.12362158277836
800000,-58.14783176730751,-59.849180003971945,-56.10703248413618
820000,-58.145195535555494,-59.875365103921695,-56.069646151823775
840000,-58.12174158952412,-59.878716005091796,-56.014344639691174
860000,-58.08013575294697,-59.86184044149296,-55.94375148690412
880000,-58.02283851221964,-59.8272027142393,-55.86022203346148
900000,-57.95208884993029,-59.77709405275222,-55.76584624426958
920000,-57.86989972599863,-59.71361525239003,-55.66246042112831
940000,-57.778062417958786,-59.63866961250038,-55.55166465845423
960000,-57.67815711814589,-59.55396397083085,-55.434843510852986
980000,-57.57156755583787,-59.46101569282491,-55.31318796082611
1000000,-57.45949785263507,-59.36116371352949,-55.18771733005863
